Time(Days),x_rot(km),y_rot(km),z_rot(km),vx_rot(km/s),vy_rot(km/s),vz_rot(km/s)
0.00000000,-9027.68435883,-4990.96769890,0.00000000,8.15813121,-7.26213107,0.00000000
-0.00075013,-8486.99221603,-5446.67409736,0.00000000,8.51818496,-6.79481970,0.00000000
-0.00150025,-7924.76370250,-5871.11286986,0.00000000,8.82187583,-6.29929051,0.00000000
-0.00225038,-7344.77872681,-6262.85916597,0.00000000,9.06586669,-5.78805433,0.00000000
-0.00300050,-6750.92248475,-6621.29464533,0.00000000,9.25019799,-5.27329510,0.00000000
-0.00375063,-6146.98032732,-6946.55173427,0.00000000,9.37779946,-4.76585542,0.00000000
-0.00450075,-5536.47441608,-7239.40344214,0.00000000,9.45372304,-4.27458530,0.00000000
-0.00525088,-4922.55361500,-7501.12374760,0.00000000,9.48429872,-3.80608042,0.00000000
-0.00600100,-4307.93611185,-7733.34198014,0.00000000,9.47637239,-3.36474208,0.00000000
-0.00675113,-3694.89618273,-7937.90855870,0.00000000,9.43671458,-2.95304817,0.00000000
-0.00750125,-3085.28297321,-8116.78208673,0.00000000,9.37162324,-2.57192463,0.00000000
-0.00825138,-2480.55919937,-8271.94141607,0.00000000,9.28670059,-2.22113311,0.00000000
-0.00900150,-1881.84973185,-8405.32186887,0.00000000,9.18676400,-1.89962264,0.00000000
-0.00975163,-1289.99278153,-8518.77236653,0.00000000,9.07584801,-1.60582094,0.00000000
-0.01050175,-705.58901471,-8614.02929435,0.00000000,8.95726085,-1.33785981,0.00000000
-0.01125188,-129.04600333,-8692.70296812,0.00000000,8.83366812,-1.09374001,0.00000000
-0.01200200,439.38311429,-8756.27309624,0.00000000,8.70718540,-0.87144583,0.00000000
-0.01275213,999.56694766,-8806.09033161,0.00000000,8.57946866,-0.66902028,0.00000000
-0.01350225,1551.46879050,-8843.38170161,0.00000000,8.45179667,-0.48461109,0.00000000
-0.01425238,2095.12456287,-8869.25830573,0.00000000,8.32514290,-0.31649593,0.00000000
-0.01500250,2630.62505156,-8884.72415317,0.00000000,8.20023626,-0.16309334,0.00000000
-0.01575263,3158.10175020,-8890.68538032,0.00000000,8.07761160,-0.02296418,0.00000000
-0.01650275,3677.71566086,-8887.95935683,0.00000000,7.95765084,0.10519275,0.00000000
-0.01725288,4189.64850052,-8877.28338026,0.00000000,7.84061626,0.22254871,0.00000000
-0.01800300,4694.09584183,-8859.32279105,0.00000000,7.72667710,0.33015470,0.00000000
-0.01875313,5191.26179794,-8834.67842774,0.00000000,7.61593081,0.42895194,0.00000000
-0.01950325,5681.35493399,-8803.89340042,0.00000000,7.50841980,0.51978237,0.00000000
-0.02025338,6164.58514741,-8767.45919577,0.00000000,7.40414473,0.60339873,0.00000000
-0.02100350,6641.16131177,-8725.82114877,0.00000000,7.30307487,0.68047400,0.00000000
-0.02175363,7111.28951974,-8679.38332728,0.00000000,7.20515634,0.75161005,0.00000000
-0.02250375,7575.17179492,-8628.51288063,0.00000000,7.11031839,0.81734551,0.00000000
-0.02325388,8033.00516947,-8573.54390440,0.00000000,7.01847846,0.87816287,0.00000000
-0.02400400,8484.98104611,-8514.78087151,0.00000000,6.92954596,0.93449476,0.00000000
-0.02475413,8931.28478012,-8452.50167710,0.00000000,6.84342528,0.98672960,0.00000000
-0.02550425,9372.09543104,-8386.96034061,0.00000000,6.76001809,1.03521654,0.00000000
-0.02625438,9807.58564413,-8318.38940446,0.00000000,6.67922504,1.08026987,0.00000000
-0.02700450,10237.92163051,-8247.00206470,0.00000000,6.60094711,1.12217292,0.00000000
-0.02775463,10663.26322123,-8172.99406528,0.00000000,6.52508659,1.16118145,0.00000000
-0.02850475,11083.76397652,-8096.54538360,0.00000000,6.45154777,1.19752670,0.00000000
-0.02925488,11499.57133483,-8017.82173229,0.00000000,6.38023751,1.23141806,0.00000000
-0.03000500,11910.82679009,-7936.97589874,0.00000000,6.31106556,1.26304537,0.00000000
-0.03075513,12317.66608829,-7854.14894138,0.00000000,6.24394483,1.29258104,0.00000000
-0.03150525,12720.21943603,-7769.47125973,0.00000000,6.17879150,1.32018189,0.00000000
-0.03225538,13118.61171591,-7683.06355261,0.00000000,6.11552509,1.34599070,0.00000000
-0.03300550,13512.96270439,-7595.03767757,0.00000000,6.05406850,1.37013775,0.00000000
-0.03375563,13903.38728920,-7505.49742268,0.00000000,5.99434797,1.39274198,0.00000000
-0.03450575,14289.99568374,-7414.53920084,0.00000000,5.93629300,1.41391221,0.00000000
-0.03525588,14672.89363693,-7322.25267497,0.00000000,5.87983630,1.43374808,0.00000000
-0.03600600,15052.18263710,-7228.72132213,0.00000000,5.82491368,1.45234098,0.00000000
-0.03675613,15427.96010920,-7134.02294290,0.00000000,5.77146391,1.46977481,0.00000000
-0.03750625,15800.31960465,-7038.23012222,0.00000000,5.71942866,1.48612673,0.00000000
-0.03825638,16169.35098359,-6941.41064679,0.00000000,5.66875235,1.50146776,0.00000000
-0.03900650,16535.14058922,-6843.62788371,0.00000000,5.61938200,1.51586335,0.00000000
-0.03975663,16897.77141437,-6744.94112435,0.00000000,5.57126716,1.52937390,0.00000000
-0.04050675,17257.32326026,-6645.40589705,0.00000000,5.52435979,1.54205521,0.00000000
-0.04125688,17613.87288764,-6545.07425193,0.00000000,5.47861410,1.55395887,0.00000000
-0.04200700,17967.49416045,-6443.99502054,0.00000000,5.43398645,1.56513267,0.00000000
-0.04275713,18318.25818232,-6342.21405299,0.00000000,5.39043527,1.57562089,0.00000000
-0.04350725,18666.23342618,-6239.77443460,0.00000000,5.34792095,1.58546461,0.00000000
-0.04425738,19011.48585713,-6136.71668420,0.00000000,5.30640570,1.59470199,0.00000000
-0.04500750,19354.07904905,-6033.07893582,0.00000000,5.26585349,1.60336850,0.00000000
-0.04575763,19694.07429509,-5928.89710544,0.00000000,5.22622995,1.61149715,0.00000000
-0.04650775,20031.53071241,-5824.20504392,0.00000000,5.18750230,1.61911869,0.00000000
-0.04725788,20366.50534148,-5719.03467789,0.00000000,5.14963922,1.62626179,0.00000000
-0.04800800,20699.05324013,-5613.41613909,0.00000000,5.11261083,1.63295319,0.00000000
-0.04875813,21029.22757272,-5507.37788377,0.00000000,5.07638857,1.63921787,0.00000000
-0.04950825,21357.07969463,-5400.94680272,0.00000000,5.04094516,1.64507918,0.00000000
-0.05025838,21682.65923238,-5294.14832283,0.00000000,5.00625452,1.65055897,0.00000000
-0.05100850,22006.01415954,-5187.00650096,0.00000000,4.97229172,1.65567769,0.00000000
-0.05175863,22327.19086877,-5079.54411088,0.00000000,4.93903289,1.66045449,0.00000000
-0.05250875,22646.23424011,-4971.78272352,0.00000000,4.90645521,1.66490736,0.00000000
-0.05325888,22963.18770572,-4863.74278153,0.00000000,4.87453681,1.66905315,0.00000000
-0.05400900,23278.09331145,-4755.44366845,0.00000000,4.84325677,1.67290769,0.00000000
-0.05475913,23590.99177513,-4646.90377277,0.00000000,4.81259504,1.67648587,0.00000000
-0.05550925,23901.92254203,-4538.14054758,0.00000000,4.78253238,1.67980169,0.00000000
-0.05625938,24210.92383748,-4429.17056604,0.00000000,4.75305037,1.68286831,0.00000000
-0.05700950,24518.03271688,-4320.00957299,0.00000000,4.72413132,1.68569813,0.00000000
-0.05775963,24823.28511327,-4210.67253292,0.00000000,4.69575829,1.68830284,0.00000000
-0.05850975,25126.71588247,-4101.17367483,0.00000000,4.66791497,1.69069346,0.00000000
-0.05925988,25428.35884610,-3991.52653407,0.00000000,4.64058575,1.69288039,0.00000000
-0.06001000,25728.24683253,-3881.74399128,0.00000000,4.61375559,1.69487343,0.00000000
-0.06076013,26026.41171571,-3771.83830891,0.00000000,4.58741005,1.69668186,0.00000000
-0.06151025,26322.88445234,-3661.82116531,0.00000000,4.56153528,1.69831444,0.00000000
-0.06226038,26617.69511715,-3551.70368661,0.00000000,4.53611791,1.69977945,0.00000000
-0.06301050,26910.87293653,-3441.49647659,0.00000000,4.51114511,1.70108473,0.00000000
-0.06376063,27202.44632062,-3331.20964467,0.00000000,4.48660454,1.70223771,0.00000000
-0.06451075,27492.44289394,-3220.85283215,0.00000000,4.46248428,1.70324541,0.00000000
-0.06526088,27780.88952448,-3110.43523681,0.00000000,4.43877290,1.70411449,0.00000000
-0.06601100,28067.81235166,-2999.96563605,0.00000000,4.41545935,1.70485127,0.00000000
-0.06676113,28353.23681280,-2889.45240852,0.00000000,4.39253300,1.70546174,0.00000000
-0.06751125,28637.18766861,-2778.90355466,0.00000000,4.36998360,1.70595159,0.00000000
-0.06826138,28919.68902741,-2668.32671578,0.00000000,4.34780127,1.70632621,0.00000000
-0.06901150,29200.76436828,-2557.72919215,0.00000000,4.32597648,1.70659074,0.00000000
-0.06976163,29480.43656326,-2447.11795999,0.00000000,4.30450001,1.70675004,0.00000000
-0.07051175,29758.72789855,-2336.49968750,0.00000000,4.28336300,1.70680875,0.00000000
-0.07126188,30035.66009475,-2225.88075000,0.00000000,4.26255687,1.70677127,0.00000000
-0.07201200,30311.25432635,-2115.26724412,0.00000000,4.24207332,1.70664181,0.00000000
-0.07276213,30585.53124023,-2004.66500125,0.00000000,4.22190438,1.70642436,0.00000000
-0.07351225,30858.51097349,-1894.07960024,0.00000000,4.20204229,1.70612271,0.00000000
-0.07426238,31130.21317053,-1783.51637941,0.00000000,4.18247959,1.70574049,0.00000000
-0.07501250,31400.65699938,-1672.98044786,0.00000000,4.16320906,1.70528115,0.00000000
-0.07576263,31669.86116733,-1562.47669615,0.00000000,4.14422369,1.70474798,0.00000000
-0.07651275,31937.84393601,-1452.00980649,0.00000000,4.12551672,1.70414413,0.00000000
-0.07726288,32204.62313578,-1341.58426231,0.00000000,4.10708162,1.70347259,0.00000000
-0.07801300,32470.21617958,-1231.20435733,0.00000000,4.08891203,1.70273621,0.00000000
-0.07876313,32734.64007619,-1120.87420419,0.00000000,4.07100183,1.70193774,0.00000000
-0.07951325,32997.91144299,-1010.59774259,0.00000000,4.05334508,1.70107977,0.00000000
-0.08026338,33260.04651823,-900.37874699,0.00000000,4.03593601,1.70016480,0.00000000
-0.08101350,33521.06117282,-790.22083406,0.00000000,4.01876904,1.69919520,0.00000000
-0.08176363,33780.97092159,-680.12746953,0.00000000,4.00183877,1.69817327,0.00000000
-0.08251375,34039.79093422,-570.10197484,0.00000000,3.98513995,1.69710116,0.00000000
-0.08326388,34297.53604566,-460.14753339,0.00000000,3.96866750,1.69598097,0.00000000
-0.08401400,34554.22076623,-350.26719654,0.00000000,3.95241649,1.69481469,0.00000000
-0.08476413,34809.85929129,-240.46388929,0.00000000,3.93638212,1.69360422,0.00000000
-0.08551425,35064.46551060,-130.74041561,0.00000000,3.92055975,1.69235140,0.00000000
-0.08626438,35318.05301725,-21.09946366,0.00000000,3.90494487,1.69105796,0.00000000
-0.08701450,35570.63511635,88.45638941,0.00000000,3.88953310,1.68972560,0.00000000
-0.08776463,35822.22483333,197.92467280,0.00000000,3.87432020,1.68835591,0.00000000
-0.08851475,36072.83492199,307.30301759,0.00000000,3.85930202,1.68695043,0.00000000
-0.08926488,36322.47787224,416.58915255,0.00000000,3.84447456,1.68551064,0.00000000
-0.09001500,36571.16591756,525.78090015,0.00000000,3.82983392,1.68403796,0.00000000
-0.09076513,36818.91104221,634.87617267,0.00000000,3.81537630,1.68253373,0.00000000
-0.09151525,37065.72498815,743.87296862,0.00000000,3.80109802,1.68099928,0.00000000
-0.09226538,37311.61926174,852.76936921,0.00000000,3.78699549,1.67943583,0.00000000
-0.09301550,37556.60514024,961.56353503,0.00000000,3.77306523,1.67784460,0.00000000
-0.09376563,37800.69367804,1070.25370286,0.00000000,3.75930385,1.67622674,0.00000000
-0.09451575,38043.89571270,1178.83818269,0.00000000,3.74570804,1.67458335,0.00000000
-0.09526588,38286.22187073,1287.31535478,0.00000000,3.73227460,1.67291550,0.00000000
-0.09601600,38527.68257327,1395.68366694,0.00000000,3.71900039,1.67122420,0.00000000
-0.09676613,38768.28804149,1503.94163183,0.00000000,3.70588238,1.66951045,0.00000000
-0.09751625,39008.04830191,1612.08782445,0.00000000,3.69291759,1.66777517,0.00000000
-0.09826638,39246.97319144,1720.12087974,0.00000000,3.68010315,1.66601928,0.00000000
-0.09901650,39485.07236228,1828.03949026,0.00000000,3.66743623,1.66424366,0.00000000
-0.09976663,39722.35528670,1935.84240399,0.00000000,3.65491410,1.66244913,0.00000000
-0.10051675,39958.83126162,2043.52842219,0.00000000,3.64253409,1.66063650,0.00000000
-0.10126688,40194.50941311,2151.09639742,0.00000000,3.63029360,1.65880656,0.00000000
-0.10201700,40429.39870064,2258.54523151,0.00000000,3.61819008,1.65696004,0.00000000
-0.10276713,40663.50792130,2365.87387380,0.00000000,3.60622107,1.65509767,0.00000000
-0.10351725,40896.84571383,2473.08131929,0.00000000,3.59438414,1.65322014,0.00000000
-0.10426738,41129.42056251,2580.16660696,0.00000000,3.58267695,1.65132811,0.00000000
-0.10501750,41361.24080098,2687.12881813,0.00000000,3.57109721,1.64942222,0.00000000
-0.10576763,41592.31461590,2793.96707491,0.00000000,3.55964266,1.64750309,0.00000000
-0.10651775,41822.65005052,2900.68053865,0.00000000,3.54831113,1.64557132,0.00000000
-0.10726788,42052.25500812,3007.26840855,0.00000000,3.53710048,1.64362748,0.00000000
-0.10801800,42281.13725538,3113.72992020,0.00000000,3.52600863,1.64167212,0.00000000
-0.10876813,42509.30442560,3220.06434435,0.00000000,3.51503355,1.63970577,0.00000000
-0.10951825,42736.76402187,3326.27098555,0.00000000,3.50417324,1.63772894,0.00000000
-0.11026838,42963.52342009,3432.34918097,0.00000000,3.49342578,1.63574213,0.00000000
-0.11101850,43189.58987197,3538.29829920,0.00000000,3.48278926,1.63374582,0.00000000
-0.11176863,43414.97050790,3644.11773915,0.00000000,3.47226184,1.63174046,0.00000000
-0.11251875,43639.67233974,3749.80692891,0.00000000,3.46184171,1.62972649,0.00000000
-0.11326888,43863.70226352,3855.36532477,0.00000000,3.45152710,1.62770435,0.00000000
-0.11401900,44087.06706206,3960.79241016,0.00000000,3.44131629,1.62567444,0.00000000
-0.11476913,44309.77340761,4066.08769471,0.00000000,3.43120759,1.62363717,0.00000000
-0.11551925,44531.82786419,4171.25071334,0.00000000,3.42119934,1.62159290,0.00000000
-0.11626938,44753.23689011,4276.28102536,0.00000000,3.41128994,1.61954203,0.00000000
-0.11701950,44974.00684031,4381.17821359,0.00000000,3.40147781,1.61748489,0.00000000
-0.11776963,45194.14396859,4485.94188352,0.00000000,3.39176140,1.61542183,0.00000000
-0.11851975,45413.65442990,4590.57166257,0.00000000,3.38213921,1.61335320,0.00000000
-0.11926988,45632.54428240,4695.06719928,0.00000000,3.37260976,1.61127930,0.00000000
-0.12002000,45850.81948963,4799.42816260,0.00000000,3.36317160,1.60920044,0.00000000
-0.12077013,46068.48592249,4903.65424117,0.00000000,3.35382333,1.60711693,0.00000000
-0.12152025,46285.54936125,5007.74514264,0.00000000,3.34456355,1.60502905,0.00000000
-0.12227038,46502.01549750,5111.70059301,0.00000000,3.33539091,1.60293708,0.00000000
-0.12302050,46717.88993598,5215.52033601,0.00000000,3.32630410,1.60084129,0.00000000
-0.12377063,46933.17819644,5319.20413244,0.00000000,3.31730180,1.59874194,0.00000000
-0.12452075,47147.88571540,5422.75175965,0.00000000,3.30838275,1.59663928,0.00000000
-0.12527088,47362.01784789,5526.16301092,0.00000000,3.29954571,1.59453355,0.00000000
-0.12602100,47575.57986912,5629.43769495,0.00000000,3.29078946,1.59242498,0.00000000
-0.12677113,47788.57697614,5732.57563531,0.00000000,3.28211280,1.59031381,0.00000000
-0.12752125,48001.01428942,5835.57666993,0.00000000,3.27351456,1.58820024,0.00000000
-0.12827138,48212.89685438,5938.44065063,0.00000000,3.26499360,1.58608449,0.00000000
-0.12902150,48424.22964298,6041.16744263,0.00000000,3.25654880,1.58396676,0.00000000
-0.12977163,48635.01755513,6143.75692410,0.00000000,3.24817905,1.58184725,0.00000000
-0.13052175,48845.26542017,6246.20898571,0.00000000,3.23988328,1.57972614,0.00000000
-0.13127188,49054.97799825,6348.52353023,0.00000000,3.23166043,1.57760363,0.00000000
-0.13202200,49264.15998168,6450.70047207,0.00000000,3.22350946,1.57547988,0.00000000
-0.13277213,49472.81599631,6552.73973695,0.00000000,3.21542936,1.57335507,0.00000000
-0.13352225,49680.95060280,6654.64126148,0.00000000,3.20741913,1.57122937,0.00000000
-0.13427238,49888.56829788,6756.40499278,0.00000000,3.19947780,1.56910293,0.00000000
-0.13502250,50095.67351560,6858.03088816,0.00000000,3.19160441,1.56697591,0.00000000
-0.13577263,50302.27062854,6959.51891474,0.00000000,3.18379801,1.56484846,0.00000000
-0.13652275,50508.36394898,7060.86904915,0.00000000,3.17605770,1.56272071,0.00000000
-0.13727288,50713.95773005,7162.08127716,0.00000000,3.16838255,1.56059282,0.00000000
-0.13802300,50919.05616683,7263.15559343,0.00000000,3.16077169,1.55846491,0.00000000
-0.13877313,51123.66339749,7364.09200117,0.00000000,3.15322425,1.55633711,0.00000000
-0.13952325,51327.78350432,7464.89051186,0.00000000,3.14573937,1.55420956,0.00000000
-0.14027338,51531.42051474,7565.55114498,0.00000000,3.13831622,1.55208236,0.00000000
-0.14102350,51734.57840237,7666.07392772,0.00000000,3.13095396,1.54995564,0.00000000
-0.14177363,51937.26108804,7766.45889475,0.00000000,3.12365180,1.54782952,0.00000000
-0.14252375,52139.47244070,7866.70608792,0.00000000,3.11640894,1.54570409,0.00000000
-0.14327388,52341.21627840,7966.81555603,0.00000000,3.10922460,1.54357947,0.00000000
-0.14402400,52542.49636923,8066.78735465,0.00000000,3.10209802,1.54145576,0.00000000
-0.14477413,52743.31643218,8166.62154578,0.00000000,3.09502845,1.53933305,0.00000000
-0.14552425,52943.68013805,8266.31819776,0.00000000,3.08801515,1.53721144,0.00000000
-0.14627438,53143.59111030,8365.87738494,0.00000000,3.08105740,1.53509103,0.00000000
-0.14702450,53343.05292592,8465.29918754,0.00000000,3.07415449,1.53297190,0.00000000
-0.14777463,53542.06911620,8564.58369144,0.00000000,3.06730571,1.53085414,0.00000000
-0.14852475,53740.64316760,8663.73098797,0.00000000,3.06051039,1.52873782,0.00000000
-0.14927488,53938.77852249,8762.74117371,0.00000000,3.05376784,1.52662304,0.00000000
-0.15002500,54136.47857994,8861.61435037,0.00000000,3.04707741,1.52450987,0.00000000
-0.15077513,54333.74669648,8960.35062452,0.00000000,3.04043845,1.52239837,0.00000000
-0.15152525,54530.58618680,9058.95010750,0.00000000,3.03385031,1.52028863,0.00000000
-0.15227538,54727.00032452,9157.41291522,0.00000000,3.02731236,1.51818071,0.00000000
-0.15302550,54922.99234286,9255.73916800,0.00000000,3.02082400,1.51607469,0.00000000
-0.15377563,55118.56543533,9353.92899044,0.00000000,3.01438461,1.51397061,0.00000000
-0.15452575,55313.72275642,9451.98251122,0.00000000,3.00799359,1.51186856,0.00000000
-0.15527588,55508.46742224,9549.89986302,0.00000000,3.00165036,1.50976858,0.00000000
-0.15602600,55702.80251116,9647.68118232,0.00000000,2.99535434,1.50767073,0.00000000
-0.15677613,55896.73106448,9745.32660930,0.00000000,2.98910496,1.50557508,0.00000000
-0.15752625,56090.25608701,9842.83628770,0.00000000,2.98290167,1.50348167,0.00000000
-0.15827638,56283.38054769,9940.21036468,0.00000000,2.97674391,1.50139056,0.00000000
-0.15902650,56476.10738019,10037.44899072,0.00000000,2.97063115,1.49930179,0.00000000
-0.15977663,56668.43948347,10134.55231947,0.00000000,2.96456285,1.49721542,0.00000000
-0.16052675,56860.37972235,10231.52050766,0.00000000,2.95853850,1.49513149,0.00000000
-0.16127688,57051.93092808,10328.35371497,0.00000000,2.95255757,1.49305004,0.00000000
-0.16202700,57243.09589886,10425.05210395,0.00000000,2.94661957,1.49097113,0.00000000
-0.16277713,57433.87740039,10521.61583987,0.00000000,2.94072399,1.48889478,0.00000000
-0.16352725,57624.27816641,10618.04509064,0.00000000,2.93487035,1.48682105,0.00000000
-0.16427738,57814.30089917,10714.34002674,0.00000000,2.92905817,1.48474997,0.00000000
-0.16502750,58003.94826995,10810.50082105,0.00000000,2.92328696,1.48268157,0.00000000
-0.16577763,58193.22291957,10906.52764884,0.00000000,2.91755627,1.48061589,0.00000000
-0.16652775,58382.12745882,11002.42068762,0.00000000,2.91186563,1.47855297,0.00000000
-0.16727788,58570.66446900,11098.18011708,0.00000000,2.90621459,1.47649284,0.00000000
-0.16802800,58758.83650232,11193.80611899,0.00000000,2.90060271,1.47443553,0.00000000
-0.16877813,58946.64608238,11289.29887714,0.00000000,2.89502956,1.47238107,0.00000000
-0.16952825,59134.09570464,11384.65857723,0.00000000,2.88949469,1.47032949,0.00000000
-0.17027838,59321.18783678,11479.88540682,0.00000000,2.88399768,1.46828082,0.00000000
-0.17102850,59507.92491919,11574.97955524,0.00000000,2.87853812,1.46623508,0.00000000
-0.17177863,59694.30936535,11669.94121353,0.00000000,2.87311559,1.46419230,0.00000000
-0.17252875,59880.34356228,11764.77057433,0.00000000,2.86772969,1.46215251,0.00000000
-0.17327888,60066.02987092,11859.46783187,0.00000000,2.86238002,1.46011572,0.00000000
-0.17402900,60251.37062651,11954.03318186,0.00000000,2.85706619,1.45808197,0.00000000
