Time(Days),x_rot(km),y_rot(km),z_rot(km),vx_rot(km/s),vy_rot(km/s),vz_rot(km/s)
0.00000000,385960.42935951,-1266.47200739,888.75118585,-1.14572764,-1.12506371,-0.32368267
0.00133356,385823.41665775,-1389.20418364,846.86930162,-1.23047910,-1.00347924,-0.40267703
0.00266711,385677.37767408,-1497.30686872,796.12099862,-1.30226964,-0.87134567,-0.47745312
0.00400067,385523.85081444,-1589.64404383,737.03797870,-1.36034081,-0.73005934,-0.54722624
0.00533422,385364.45353770,-1665.24629246,670.23938168,-1.40408005,-0.58111324,-0.61126468
0.00666778,385200.86515405,-1723.32102340,596.42522158,-1.43302724,-0.42608098,-0.66889755
0.00800133,385034.80897151,-1763.26079044,516.36896554,-1.44687945,-0.26659985,-0.71952185
0.00933489,384868.03398628,-1784.64961928,430.90933678,-1.44549406,-0.10435321,-0.76260883
0.01066844,384702.29631834,-1787.26727906,340.94143311,-1.42889012,0.05894759,-0.79770954
0.01200200,384539.34059474,-1771.09145531,247.40725818,-1.39724786,0.22158148,-0.82445944
0.01333556,384380.88148313,-1736.29780910,151.28577003,-1.35090657,0.38183609,-0.84258213
0.01466911,384228.58557516,-1683.25792656,53.58255508,-1.29036070,0.53802589,-0.85189217
0.01600267,384084.05381368,-1612.53519044,-44.68075987,-1.21625428,0.68851009,-0.85229679
0.01733622,383948.80465120,-1524.87862441,-142.47724370,-1.12937385,0.83170992,-0.84379673
0.01866978,383824.25811672,-1421.21478552,-238.78543018,-1.03063978,0.96612518,-0.82648600
0.02000333,383711.72095769,-1302.63779865,-332.60000578,-0.92109628,1.09034990,-0.80055068
0.02133689,383612.37301003,-1170.39764783,-422.94230365,-0.80190011,1.20308695,-0.76626679
0.02267045,383527.25493537,-1025.88685541,-508.87049428,-0.67430818,1.30316138,-0.72399715
0.02400400,383457.25744844,-870.62569758,-589.48936743,-0.53966408,1.38953244,-0.67418744
0.02533756,383403.11214117,-706.24611726,-663.95960514,-0.39938386,1.46130418,-0.61736129
0.02667111,383365.38399178,-534.47450929,-731.50645220,-0.25494105,1.51773440,-0.55411476
0.02800467,383344.46562981,-357.11356107,-791.42769682,-0.10785117,1.55824208,-0.48510992
0.02933822,383340.57340791,-176.02334181,-843.10088290,0.04034412,1.58241300,-0.41106789
0.03067178,383353.74531446,6.89816230,-885.98968292,0.18809307,1.59000371,-0.33276128
0.03200533,383383.84073921,189.73486427,-919.64937064,0.33384996,1.58094369,-0.25100613
0.03333889,383430.54208913,370.57254042,-943.73134071,0.47609104,1.55533572,-0.16665346
0.03467245,383493.35822909,547.51873832,-957.98663403,0.61333027,1.51345454,-0.08058044
0.03600600,383571.62970851,718.72242705,-962.26843580,0.74413453,1.45574377,0.00631857
0.03733956,383664.53571367,882.39319202,-956.53352524,0.86713835,1.38281105,0.09314126
0.03867311,383771.10267281,1036.81978196,-940.84266456,0.98105787,1.29542165,0.17898653
0.04000667,383890.21442217,1180.38782362,-915.35992654,1.08470391,1.19449048,0.26296370
0.04134022,384020.62382935,1311.59652779,-880.35096861,1.17699419,1.08107254,0.34420163
0.04267378,384160.96575465,1429.07422134,-836.18027307,1.25696436,0.95635213,0.42185749
0.04400733,384309.77122023,1531.59255068,-783.30738088,1.32377787,0.82163061,0.49512546
0.04534089,384465.48264441,1618.07921610,-722.28215769,1.37673458,0.67831312,0.56324483
0.04667445,384626.46998942,1687.62910896,-653.73913842,1.41527800,0.52789418,0.62550784
0.04800800,384791.04766130,1739.51374040,-578.39100643,1.43900112,0.37194245,0.68126690
0.04934156,384957.49199406,1773.18886450,-497.02127066,1.44765068,0.21208468,0.72994125
0.05067511,385124.05914329,1788.30021774,-410.47621294,1.44113002,0.04998906,0.77102297
0.05200867,385289.00321066,1784.68731188,-319.65618352,1.41950021,-0.11265188,0.80408227
0.05334222,385450.59441694,1762.38523832,-225.50633100,1.38297978,-0.27413868,0.82877200
0.05467578,385607.13714012,1721.62445846,-129.00685723,1.33194266,-0.43278244,0.84483140
0.05600933,385756.98763484,1662.82857629,-31.16289435,1.26691467,-0.58692236,0.85208890
0.05734289,385898.57125127,1586.61010712,67.00589541,1.18856838,-0.73494292,0.85046408
0.05867645,386030.39897501,1493.76427822,164.47589235,1.09771647,-0.87529086,0.83996877
0.06001000,386151.08311460,1385.26091558,260.23015727,0.99530358,-1.00649138,0.82070704
0.06134356,386259.35197013,1262.23449209,353.26902548,0.88239677,-1.12716382,0.79287445
0.06267711,386354.06332562,1125.97243139,442.62054763,0.76017466,-1.23603627,0.75675616
0.06401067,386434.21661776,977.90178061,527.35066770,0.62991536,-1.33195918,0.71272422
0.06534422,386498.96364669,819.57438415,606.57303097,0.49298324,-1.41391780,0.66123390
0.06667778,386547.61770760,652.65070684,679.45831668,0.35081476,-1.48104314,0.60281911
0.06801134,386579.66103882,478.88247194,745.24299488,0.20490344,-1.53262156,0.53808698
0.06934489,386594.75049793,300.09429290,803.23741159,0.05678417,-1.56810265,0.46771164
0.07067845,386592.72139706,118.16449111,852.83311291,-0.09198302,-1.58710542,0.39242722
0.07201200,386573.58944749,-64.99469751,893.50932635,-0.23982953,-1.58942274,0.31302025
0.07334556,386537.55078442,-247.45731605,924.83852617,-0.38519492,-1.57502383,0.23032139
0.07467911,386484.98006450,-427.30406267,946.49101917,-0.52654359,-1.54405495,0.14519668
0.07601267,386416.42664944,-602.64262834,958.23849766,-0.66238128,-1.49683801,0.05853840
0.07734622,386332.60891181,-771.62777423,959.95651823,-0.79127116,-1.43386744,-0.02874444
0.07867978,386234.40671991,-932.48092862,951.62587609,-0.91184931,-1.35580504,-0.11573572
0.08001334,386122.85218013,-1083.50908762,933.33285776,-1.02283945,-1.26347300,-0.20152204
0.08134689,385999.11873536,-1223.12281132,905.26836741,-1.12306672,-1.15784521,-0.28520245
0.08268045,385864.50873667,-1349.85311634,867.72593473,-1.21147038,-1.04003684,-0.36589809
0.08401400,385720.43962437,-1462.36707907,821.09862564,-1.28711522,-0.91129235,-0.44276159
0.08534756,385568.42886894,-1559.48197686,765.87488875,-1.34920166,-0.77297216,-0.51498612
0.08668111,385410.07783852,-1640.17781366,702.63338382,-1.39707427,-0.62653796,-0.58181400
0.08801467,385247.05476977,-1703.60809193,632.03684850,-1.43022877,-0.47353698,-0.64254476
0.08934822,385081.07703076,-1749.10871718,554.82507237,-1.44831736,-0.31558532,-0.69654257
0.09068178,384913.89287029,-1776.20493789,471.80705496,-1.45115226,-0.15435061,-0.74324295
0.09201534,384747.26285487,-1784.61625219,383.85243587,-1.43870760,0.00846597,-0.78215870
0.09334889,384582.94119602,-1774.25922935,291.88229026,-1.41111942,0.17114786,-0.81288495
0.09468245,384422.65717131,-1745.24822481,196.85939231,-1.36868405,0.33198146,-0.83510337
0.09601600,384268.09684072,-1697.89398390,99.77805208,-1.31185464,0.48927441,-0.84858535
0.09734956,384120.88525428,-1632.70016043,1.65363734,-1.24123608,0.64137348,-0.85319426
0.09868311,383982.56934195,-1550.35779142,-96.48810689,-1.15757825,0.78668211,-0.84888673
0.10001667,383854.60166539,-1451.73779944,-193.62182598,-1.06176784,0.92367711,-0.83571287
0.10135023,383738.32520371,-1337.88160672,-288.73329580,-0.95481860,1.05092467,-0.81381556
0.10268378,383634.95932866,-1209.98997335,-380.83002190,-0.83786043,1.16709518,-0.78342874
0.10401734,383545.58711548,-1069.41018167,-468.95158628,-0.71212720,1.27097705,-0.74487475
0.10535089,383471.14411452,-917.62171376,-552.17963482,-0.57894352,1.36148910,-0.69856073
0.10668445,383412.40869851,-756.22057563,-629.64740193,-0.43971069,1.43769155,-0.64497422
0.10801800,383369.99407553,-586.90244214,-700.54867650,-0.29589184,1.49879557,-0.58467785
0.10935156,383344.34204790,-411.44480029,-764.14611747,-0.14899655,1.54417104,-0.51830340
0.11068511,383335.71856905,-231.68828367,-819.77883796,-0.00056499,1.57335286,-0.44654502
0.11201867,383344.21114181,-49.51739189,-866.86918133,0.14784811,1.58604529,-0.37015203
0.11335223,383369.72807157,133.15920215,-904.92862570,0.29468964,1.58212477,-0.28992098
0.11468578,383411.99958023,314.42855517,-933.56275784,0.43842414,1.56164075,-0.20668747
0.11601934,383470.58075702,492.39336207,-952.47527234,0.57754970,1.52481493,-0.12131741
0.11735289,383544.85631487,665.19166812,-961.47095647,0.71061333,1.47203867,-0.03469817
0.11868645,383634.04709370,831.01618615,-960.45763674,0.83622591,1.40386868,0.05227057
0.12002000,383737.21824438,988.13302422,-949.44706799,0.95307638,1.32102114,0.13868601
0.12135356,383853.28900261,1134.89963826,-928.55476147,1.05994514,1.22436412,0.22365147
0.12268711,383981.04395539,1269.78182924,-897.99875333,1.15571650,1.11490861,0.30628548
0.12402067,384119.14568089,1391.36961870,-858.09733000,1.23939011,0.99379801,0.38573083
0.12535423,384266.14863733,1498.39184246,-809.26573184,1.31009116,0.86229643,0.46116321
0.12668778,384420.51415788,1589.72932075,-752.01187110,1.36707936,0.72177568,0.53179968
0.12802134,384580.62640455,1664.42647009,-686.93110409,1.40975659,0.57370126,0.59690659
0.12935489,384744.80911947,1721.70124440,-614.70011186,1.43767311,0.41961740,0.65580715
0.13068845,384911.34300873,1760.95330006,-536.06994687,1.45053230,0.26113124,0.70788831
0.13202200,385078.48358400,1781.77030580,-451.85831584,1.44819386,0.09989638,0.75260711
0.13335556,385244.47928475,1783.93232524,-362.94117227,1.43067546,-0.06240399,0.78949633
0.13468911,385407.58969884,1767.41422912,-270.24370280,1.39815282,-0.22407446,0.81816934
0.13602267,385566.10369779,1732.38610144,-174.73079429,1.35095815,-0.38342479,0.83832426
0.13735623,385718.35730315,1679.21163466,-77.39707735,1.28957703,-0.53878744,0.84974715
0.13868978,385862.75110023,1608.44451727,20.74335593,1.21464368,-0.68853481,0.85231444
0.14002334,385997.76702072,1520.82284762,118.66745617,1.12693473,-0.83109628,0.84599440
0.14135689,386121.98431727,1417.26161802,215.35383718,1.02736146,-0.96497458,0.83084764
0.14269045,386234.09456346,1298.84334214,309.79340413,0.91696062,-1.08876168,0.80702675
0.14402400,386332.91551631,1166.80690959,400.99988006,0.79688394,-1.20115361,0.77477491
0.14535756,386417.40369387,1022.53477915,488.02012126,0.66838627,-1.30096446,0.73442362
0.14669112,386486.66552605,867.53863260,569.94411261,0.53281271,-1.38713908,0.68638941
0.14802467,386539.96695757,703.44363583,645.91453724,0.39158464,-1.45876452,0.63116971
0.14935823,386576.74138924,531.97146387,715.13581663,0.24618490,-1.51508005,0.56933786
0.15069178,386596.59586923,354.92226698,776.88252427,0.09814220,-1.55548547,0.50153719
0.15202534,386599.31545442,174.15576312,830.50707841,-0.05098497,-1.57954796,0.42847445
0.15335889,386584.86569224,-8.42834199,875.44663093,-0.19962489,-1.58700691,0.35091243
0.15469245,386553.39318177,-190.91040076,911.22907209,-0.34620934,-1.57777712,0.26966203
0.15602600,386505.22420650,-371.37111925,937.47808595,-0.48919033,-1.55194999,0.18557370
0.15735956,386440.86144042,-547.91188335,953.91719527,-0.62705676,-1.50979280,0.09952848
0.15869312,386360.97876229,-718.67489438,960.37275173,-0.75835061,-1.45174615,0.01242866
0.16002667,386266.41422463,-881.86289310,956.77583312,-0.88168268,-1.37841941,-0.07481179
0.16136023,386158.16125392,-1035.75825632,943.16302673,-0.99574759,-1.29058432,-0.16127701
0.16269378,386037.35817134,-1178.74125419,919.67608598,-1.09933787,-1.18916688,-0.24605899
0.16402734,385905.27614970,-1309.30726827,886.56046434,-1.19135700,-1.07523745,-0.32826731
0.16536089,385763.30573472,-1426.08277850,844.16273952,-1.27083127,-0.94999928,-0.40703862
0.16669445,385612.94208006,-1527.83994473,792.92695739,-1.33692022,-0.81477557,-0.48154590
0.16802800,385455.76905650,-1613.50962076,733.38993380,-1.38892569,-0.67099530,-0.55100727
0.16936156,385293.44241186,-1682.19266082,666.17556759,-1.42629930,-0.52017774,-0.61469436
0.17069512,385127.67216586,-1733.16939404,591.98822634,-1.44864821,-0.36391619,-0.67193998
0.17202867,384960.20443493,-1765.90716789,511.60527952,-1.45573921,-0.20386074,-0.72214524
0.17336223,384792.80288598,-1780.06587943,425.86886052,-1.44750109,-0.04170063,-0.76478584
0.17469578,384627.23002288,-1775.50144084,335.67694967,-1.42402521,0.12085395,-0.79941753
0.17602934,384465.22850953,-1752.26714454,241.97387578,-1.38556426,0.28209008,-0.82568071
0.17736289,384308.50273244,-1710.61292170,145.74034089,-1.33252933,0.44031040,-0.84330413
0.17869645,384158.70080155,-1650.98250689,47.98307695,-1.26548528,0.59385117,-0.85210759
0.18003001,384017.39718206,-1574.00854886,-50.27575329,-1.18514441,0.74109981,-0.85200364
0.18136356,383886.07614179,-1480.50572627,-148.00929690,-1.09235865,0.88051195,-0.84299835
0.18269712,383766.11618791,-1371.46195168,-244.19677794,-0.98811022,1.01062755,-0.82519102
0.18403067,383658.77565555,-1248.02776432,-337.83417690,-0.87350099,1.13008618,-0.79877291
0.18536423,383565.17959583,-1111.50403367,-427.94470999,-0.74974059,1.23764107,-0.76402508
0.18669778,383486.30809724,-963.32811045,-513.58899884,-0.61813344,1.33217193,-0.72131517
0.18803134,383422.98615603,-805.05857894,-593.87482573,-0.48006485,1.41269644,-0.67109340
0.18936489,383375.87519594,-638.35877624,-667.96637428,-0.33698634,1.47838012,-0.61388771
0.19069845,383345.46631739,-464.97925716,-735.09286244,-0.19040030,1.52854477,-0.55029804
0.19203201,383332.07533963,-286.73939079,-794.55648080,-0.04184425,1.56267507,-0.48098999
0.19336556,383335.83967805,-105.50828434,-845.73955841,0.10712525,1.58042366,-0.40668781
0.19469912,383356.71708259,76.81476742,-888.11088525,0.25494879,1.58161429,-0.32816675
0.19603267,383394.48624063,258.32010363,-921.23113139,0.40008026,1.56624337,-0.24624505
0.19736623,383448.74923306,437.10758663,-944.75731036,0.54100282,1.53447960,-0.16177538
0.19869978,383518.93580959,611.30635626,-958.44624624,0.67624451,1.48666200,-0.07563610
0.20003334,383604.30943589,779.09424929,-962.15701198,0.80439337,1.42329608,0.01127780
0.20136689,383703.97504411,938.71668903,-955.85231858,0.92411186,1.34504847,0.09806388
0.20270045,383816.88840601,1088.50485592,-939.59884322,1.03415056,1.25273982,0.18382144
0.20403401,383941.86702905,1226.89295883,-913.56649640,1.13336090,1.14733632,0.26766076
0.20536756,384077.60246494,1352.43443503,-878.02663657,1.22070695,1.02993960,0.34871211
0.20670112,384222.67390421,1463.81691900,-833.34925236,1.29527593,0.90177545,0.42613462
0.20803467,384375.56292083,1559.87583093,-779.99914043,1.35628761,0.76418118,0.49912485
0.20936823,384534.66921817,1639.60645065,-718.53111815,1.40310232,0.61859199,0.56692498
0.21070178,384698.32721988,1702.17435547,-649.58431784,1.43522757,0.46652623,0.62883053
0.21203534,384864.82333980,1746.92411761,-573.87561913,1.45232321,0.30956992,0.68419757
0.21336889,385032.41375924,1773.38617122,-492.19228320,1.45420509,0.14936053,0.73244938
0.21470245,385199.34253399,1781.28177846,-405.38386154,1.44084711,-0.01242982,0.77308238
0.21603601,385363.85984997,1770.52603913,-314.35345759,1.41238172,-0.17411145,0.80567139
0.21736956,385524.24024371,1741.22891009,-220.04842780,1.36909884,-0.33399457,0.82987411
0.21870312,385678.80060340,1693.69421646,-123.45061299,1.31144311,-0.49040667,0.84543480
0.22003667,385825.91776687,1628.41665881,-25.56619750,1.24000966,-0.64170987,0.85218703
0.22137023,385964.04553527,1546.07683814,72.58470324,1.15553821,-0.78631796,0.85005565
0.22270378,386091.73092593,1447.53434187,169.97862142,1.05890575,-0.92271299,0.83905771
0.22403734,386207.62949313,1333.81895268,265.59937486,0.95111772,-1.04946122,0.81930255
0.22537090,386310.51955407,1206.12006271,358.44865489,0.83329782,-1.16522829,0.79099085
0.22670445,386399.31516635,1065.77439391,447.55645470,0.70667655,-1.26879347,0.75441281
0.22803801,386473.07771490,914.25214468,531.99122884,0.57257854,-1.35906266,0.70994531
0.22937156,386531.02597933,753.14170026,610.86967642,0.43240889,-1.43508030,0.65804821
0.23070512,386572.54456751,584.13306107,683.36604335,0.28763848,-1.49603970,0.59925972
0.23203867,386597.19061743,409.00015859,748.72084295,0.13978861,-1.54129200,0.53419093
0.23337223,386604.69868735,229.58224203,806.24889961,-0.00958502,-1.57035334,0.46351956
0.23470578,386594.98377296,47.76453077,855.34662646,-0.15890881,-1.58291037,0.38798289
0.23603934,386568.14241105,-134.54166209,895.49845604,-0.30660794,-1.57882396,0.30837016
0.23737290,386524.45184901,-315.41912292,926.28235073,-0.45112321,-1.55813096,0.22551423
0.23870645,386464.36728249,-492.96502939,947.37433063,-0.59092772,-1.52104416,0.14028284
0.24004001,386388.51718369,-665.31112068,958.55196592,-0.72454329,-1.46795020,0.05356943
0.24137356,386297.69676594,-830.64352565,959.69679291,-0.85055639,-1.39940572,-0.03371638
0.24270712,386192.85965073,-987.22203141,950.79562465,-0.96763333,-1.31613155,-0.12065842
0.24404067,386075.10782474,-1133.39857976,931.94073922,-1.07453476,-1.21900510,-0.20634380
0.24537423,385945.67999393,-1267.63478786,903.32894200,-1.17012899,-1.10905103,-0.28987263
0.24670778,385805.93846062,-1388.51829898,865.25951041,-1.25340421,-0.98743030,-0.37036765
0.24804134,385657.35466683,-1494.77778366,818.13104329,-1.32347946,-0.85542774,-0.44698362
0.24937490,385501.49356187,-1585.29642535,762.43724827,-1.37961405,-0.71443819,-0.51891632
0.25070845,385339.99696675,-1659.12374405,698.76171434,-1.42121549,-0.56595152,-0.58541118
0.25204201,385174.56611804,-1715.48562787,627.77172637,-1.44784583,-0.41153655,-0.64577125
0.25337556,385006.94358402,-1753.79246668,550.21119103,-1.45922620,-0.25282419,-0.69936464
0.25470912,384838.89475158,-1773.64529964,466.89275169,-1.45523970,-0.09148991,-0.74563114
0.25604267,384672.18908737,-1774.83991621,378.68918034,-1.43593246,0.07076426,-0.78408813
0.25737623,384508.58137771,-1757.36886792,286.52414071,-1.40151290,0.23222796,-0.81433561
0.25870978,384349.79315143,-1721.42137812,191.36242512,-1.35234932,0.39120073,-0.83606028
0.26004334,384197.49448674,-1667.38115395,94.19977096,-1.28896569,0.54601011,-0.84903872
0.26137690,384053.28639678,-1595.82213476,-3.94763157,-1.21203578,0.69502939,-0.85313962
0.26271045,383918.68398272,-1507.50222704,-102.05382746,-1.12237572,0.83669474,-0.84832491
0.26404401,383795.10053073,-1403.35510442,-199.09386566,-1.02093509,0.96952166,-0.83465002
0.26537756,383683.83272093,-1284.48016511,-294.05453381,-0.90878657,1.09212046,-0.81226308
0.26671112,383586.04709886,-1152.13076498,-385.94494560,-0.78711434,1.20321070,-0.78140313
0.26804467,383502.76795027,-1007.70085540,-473.80686953,-0.65720140,1.30163442,-0.74239743
0.26937823,383434.86669776,-852.71017763,-556.72469236,-0.52041583,1.38636797,-0.69565781
0.27071179,383383.05292766,-688.78817264,-633.83491396,-0.37819625,1.45653240,-0.64167622
0.27204534,383347.86712945,-517.65678392,-704.33507820,-0.23203666,1.51140232,-0.58101938
0.27337890,383329.67522042,-341.11233468,-767.49204838,-0.08347069,1.55041309,-0.51432276
0.27471245,383328.66489930,-161.00667415,-822.64954685,0.06594444,1.57316628,-0.44228384
0.27604601,383344.84386393,20.77221116,-869.23488233,0.21464415,1.57943352,-0.36565480
0.27737956,383378.03989812,202.31991815,-906.76480239,0.36107275,1.56915842,-0.28523460
0.27871312,383427.90282449,381.73547723,-934.85041235,0.50369948,1.54245685,-0.20186075
0.28004667,383493.90829141,557.14112894,-953.20111699,0.64103435,1.49961542,-0.11640057
0.28138023,383575.36335370,726.70182596,-961.62754643,0.77164338,1.44108826,-0.02974233
0.28271379,383671.41378063,888.64426502,-960.04344237,0.89416330,1.36749205,0.05721394
0.28404734,383781.05301640,1041.27525683,-948.46648655,1.00731554,1.27959952,0.14356560
0.28538090,383903.13269534,1182.99925265,-927.01806815,1.10991921,1.17833133,0.22841664
0.28671445,384036.37460643,1312.33485140,-895.92199233,1.20090321,1.06474651,0.31088681
0.28804801,384179.38398186,1427.93012620,-855.50214689,1.27931717,0.94003154,0.39012060
0.28938156,384330.66397814,1528.57661574,-806.17914908,1.34434112,0.80548812,0.46529588
0.29071512,384488.63120164,1613.22184488,-748.46600885,1.39529396,0.66251986,0.53563237
0.29204867,384651.63212576,1680.98024599,-682.96284936,1.43164046,0.51261791,0.60039952
0.29338223,384817.96023397,1731.14237570,-610.35073914,1.45299685,0.35734571,0.65892401
0.29471579,384985.87371966,1763.18232872,-531.38469396,1.45913486,0.19832301,0.71059666
0.29604934,385153.61356494,1776.76327701,-446.88591913,1.44998430,0.03720929,0.75487872
